-60.00
-57.00
-54.00
-51.00
-48.00
-45.00
-42.00
-39.00
-36.00
-33.00
-30.00
-27.00
-24.00
-21.00
-18.00
-15.00
-12.00
-9.00
-6.00
-3.00
0.00
3.00
6.00
9.00
11.99
15.00
17.99
20.99
23.99
26.99
29.99
32.99
35.99
38.99
41.99
44.99
47.99
50.99
53.99
56.99
59.99
