# Output from CTFFind version 4.0.16, run on 2017-03-21 17:21:01
# Input file: 1.mrc; Number of micrographs: 35
# Pixel size: 3.350; acceleration voltage: 300.0; spherical aberration: 2.7; amplitude contrast: .07
# Box size: 512; min res: 30.0; max. res.: 5.0; min. def.: 5000.0; max. def.: 55000.0
# 6 lines per micrograph: #1 - spatial frequency (1/pixels); #2 - 1D rotational average of spectrum (assuming no astigmatism); #3 - 1D rotational average of spectrum; #4 - CTF fit; #5 - cross-correlation between spectrum and CTF fit; #6 - 2sigma of expected cross correlation of noise
  0.000000      0.1953125E-02  0.3906250E-02  0.5859375E-02  0.7812500E-02  0.9765624E-02  0.1171875E-01  0.1367187E-01  0.1562500E-01  0.1757812E-01  0.1953125E-01  0.2148437E-01  0.2343750E-01  0.2539062E-01  0.2734375E-01  0.2929687E-01  0.3125000E-01  0.3320312E-01  0.3515625E-01  0.3710937E-01  0.3906250E-01  0.4101562E-01  0.4296875E-01  0.4492187E-01  0.4687500E-01  0.4882812E-01  0.5078125E-01  0.5273437E-01  0.5468750E-01  0.5664062E-01  0.5859375E-01  0.6054687E-01  0.6250000E-01  0.6445312E-01  0.6640624E-01  0.6835937E-01  0.7031249E-01  0.7226562E-01  0.7421874E-01  0.7617187E-01  0.7812499E-01  0.8007812E-01  0.8203124E-01  0.8398437E-01  0.8593749E-01  0.8789062E-01  0.8984374E-01  0.9179687E-01  0.9374999E-01  0.9570312E-01  0.9765624E-01  0.9960937E-01  0.1015625      0.1035156      0.1054687      0.1074219      0.1093750      0.1113281      0.1132812      0.1152344      0.1171875      0.1191406      0.1210937      0.1230469      0.1250000      0.1269531      0.1289062      0.1308594      0.1328125      0.1347656      0.1367187      0.1386719      0.1406250      0.1425781      0.1445312      0.1464844      0.1484375      0.1503906      0.1523437      0.1542969      0.1562500      0.1582031      0.1601562      0.1621094      0.1640625      0.1660156      0.1679687      0.1699219      0.1718750      0.1738281      0.1757812      0.1777344      0.1796875      0.1816406      0.1835937      0.1855469      0.1875000      0.1894531      0.1914062      0.1933594      0.1953125      0.1972656      0.1992187      0.2011719      0.2031250      0.2050781      0.2070312      0.2089844      0.2109375      0.2128906      0.2148437      0.2167969      0.2187500      0.2207031      0.2226562      0.2246094      0.2265625      0.2285156      0.2304687      0.2324219      0.2343750      0.2363281      0.2382812      0.2402344      0.2421875      0.2441406      0.2460937      0.2480469      0.2500000      0.2519531      0.2539062      0.2558593      0.2578125      0.2597656      0.2617187      0.2636718      0.2656250      0.2675781      0.2695312      0.2714843      0.2734375      0.2753906      0.2773437      0.2792968      0.2812500      0.2832031      0.2851562      0.2871093      0.2890625      0.2910156      0.2929687      0.2949218      0.2968750      0.2988281      0.3007812      0.3027343      0.3046875      0.3066406      0.3085937      0.3105468      0.3125000      0.3144531      0.3164062      0.3183593      0.3203125      0.3222656      0.3242187      0.3261718      0.3281250      0.3300781      0.3320312      0.3339843      0.3359375      0.3378906      0.3398437      0.3417968      0.3437500      0.3457031      0.3476562      0.3496093      0.3515625      0.3535156      0.3554687      0.3574218      0.3593750      0.3613281      0.3632812      0.3652343      0.3671875      0.3691406      0.3710937      0.3730468      0.3750000      0.3769531      0.3789062      0.3808593      0.3828125      0.3847656      0.3867187      0.3886718      0.3906250      0.3925781      0.3945312      0.3964843      0.3984375      0.4003906      0.4023437      0.4042968      0.4062500      0.4082031      0.4101562      0.4121093      0.4140625      0.4160156      0.4179687      0.4199218      0.4218750      0.4238281      0.4257812      0.4277343      0.4296875      0.4316406      0.4335937      0.4355468      0.4375000      0.4394531      0.4414062      0.4433593      0.4453125      0.4472656      0.4492187      0.4511718      0.4531250      0.4550781      0.4570312      0.4589843      0.4609375      0.4628906      0.4648437      0.4667968      0.4687500      0.4707031      0.4726562      0.4746093      0.4765625      0.4785156      0.4804687      0.4824218      0.4843750      0.4863281      0.4882812      0.4902343      0.4921875      0.4941406      0.4960937      0.4980468      0.5000000      0.5019531      0.5039062      0.5058593      0.5078124      0.5097656      0.5117187      0.5136718      0.5156249      0.5175781      0.5195312      0.5214843      0.5234374      0.5253906      0.5273437      0.5292968      0.5312499      0.5332031      0.5351562      0.5371093      0.5390624      0.5410156      0.5429687      0.5449218      0.5468749      0.5488281      0.5507812      0.5527343      0.5546874      0.5566406      0.5585937      0.5605468      0.5624999      0.5644531      0.5664062      0.5683593      0.5703124      0.5722656      0.5742187      0.5761718      0.5781249      0.5800781      0.5820312      0.5839843      0.5859374      0.5878906      0.5898437      0.5917968      0.5937499      0.5957031      0.5976562      0.5996093      0.6015624      0.6035156      0.6054687      0.6074218      0.6093749      0.6113281      0.6132812      0.6152343      0.6171874      0.6191406      0.6210937      0.6230468      0.6249999      0.6269531      0.6289062      0.6308593      0.6328124      0.6347656      0.6367187      0.6386718      0.6406249      0.6425781      0.6445312      0.6464843      0.6484374      0.6503906      0.6523437      0.6542968      0.6562499      0.6582031      0.6601562      0.6621093      0.6640624      0.6660156      0.6679687      0.6699218      0.6718749      0.6738281      0.6757812      0.6777343      0.6796874      0.6816406      0.6835937      0.6855468      0.6874999      0.6894531      0.6914062      0.6933593      0.6953124      0.6972656      0.6992187      0.7011718      0.7031249      0.7050781      0.7070312      0.7089843     
  0.000000      -4.074765      -1.841139      -1.920246      -2.126691     -0.9610167      0.4258939E-02  0.5006755E-02  0.4361432E-02  0.4628329E-02  0.5007887E-02  0.4947725E-02  0.5245722E-02  0.4348555E-02  0.4451911E-02  0.5124903E-02  0.5035236E-02  0.5024643E-02  0.4379627E-02  0.4711434E-02  0.5160778E-02  0.4578327E-02  0.4821714E-02  0.5203835E-02  0.5141927E-02  0.4704112E-02  0.4345801E-02  0.4892574E-02  0.5333675E-02  0.5013615E-02  0.4795361E-02  0.4666153E-02  0.4761403E-02  0.4921961E-02  0.4767021E-02  0.4915612E-02  0.5123290E-02  0.4985426E-02  0.4704864E-02  0.4682732E-02  0.5187461E-02  0.5039402E-02  0.4714430E-02  0.4680234E-02  0.4729403E-02  0.5116418E-02  0.5108626E-02  0.4914871E-02  0.4872394E-02  0.4877441E-02  0.4662784E-02  0.4697260E-02  0.5103596E-02  0.5071200E-02  0.5003953E-02  0.4761828E-02  0.4732596E-02 -0.6856154E-01 -0.2458962     -0.2765118     -0.2538650     -0.2731858     -0.2467032     -0.1799550     -0.1470625     -0.2762041     -0.2174201     -0.2066358     -0.1727074     -0.1962739     -0.2416044     -0.1403839     -0.1500381     -0.1291202     -0.7591821E-01  0.2187599E-02 -0.1317522     -0.9406355E-01 -0.3609682E-01 -0.3931326E-01 -0.7412005E-01 -0.8006612E-01 -0.3545455E-01  0.8928016E-02  0.4719724E-01  0.2225236E-01  0.1396437E-01 -0.1030527E-01  0.1770559E-01 -0.4644618E-01  0.3512928E-01 -0.8743612E-01 -0.3265892E-01 -0.2210964E-01  0.9006944E-02  0.4527750E-01 -0.3029863E-01 -0.1324177E-01 -0.3917714E-01 -0.8366865E-01  0.2159613E-01 -0.3792391E-01  0.1694271E-01  0.5389497E-01 -0.3160689E-01 -0.1574105E-01  0.3285322E-01 -0.2873496E-01 -0.6094199E-01  0.1749585E-01 -0.4212848E-01 -0.5162483E-01 -0.6956249E-02 -0.5134307E-01 -0.8635340E-02  0.5064043E-01  0.3661363E-02 -0.1663890E-01 -0.4589489E-02 -0.1110364E-01 -0.8427851E-02  0.1138301E-01 -0.3702334E-01  0.1358366E-01 -0.2096882E-01 -0.5099964E-01 -0.5367193E-01 -0.9639202E-01  0.1317776E-01  0.2370969E-01  0.1301302E-01 -0.2839699E-01 -0.1999642E-01  0.4017597E-03  0.9096204E-01  0.5205158E-01  0.7981436E-01  0.1966630E-01  0.5720055E-01  0.5115629E-03  0.3333965E-01  0.1354792E-01  0.1275398E-01  0.1233805E-01  0.3465659E-01 -0.2257985E-01 -0.1729217E-01  0.9109002E-01  0.8992590E-01 -0.2772840E-01 -0.5233931E-01 -0.7454497E-01  0.8361229E-02  0.9583746E-01  0.5405616E-01 -0.4462735E-01  0.3684260E-01 -0.4624974E-01  0.4371377E-01  0.1573353E-01  0.1654511E-02 -0.4699941E-01  0.6743358E-02  0.4968866E-01  0.3389186E-01 -0.2038197E-01 -0.1249806E-01  0.8802986E-02 -0.8315988E-02 -0.2239741E-01 -0.3540075E-02 -0.7919285E-02 -0.2779032E-01 -0.4481283E-01 -0.1253833E-01  0.3290828E-01  0.4187264E-02  0.3525150E-01 -0.2656178E-02  0.5838526E-02  0.1956212E-01 -0.8654183E-02  0.2220669E-01  0.3030941E-01  0.2507407E-01 -0.3688432E-04 -0.2160567E-01 -0.3212906E-01  0.1660044E-01  0.4232141E-01  0.4013093E-01 -0.3988017E-01  0.2647967E-01  0.3551408E-01  0.1178857E-01  0.1634292E-01 -0.7593965E-02  0.3499490E-01  0.1560063E-01  0.2458019E-01  0.8130040E-02  0.3309655E-01 -0.6769142E-01 -0.6819560E-01 -0.2918426E-01  0.4739125E-01  0.3208940E-01  0.3494763E-01  0.4923267E-01  0.2568438E-01 -0.5583903E-02 -0.2529022E-02  0.3878216E-01 -0.3661540E-02  0.4274368E-02  0.6569764E-02 -0.4508498E-01 -0.1840098E-01 -0.3621456E-01  0.5824578E-01  0.5442692E-01  0.7442159E-01  0.3779149E-01  0.4217447E-01  0.6509592E-01  0.3528525E-03 -0.4759301E-02  0.1163299E-01  0.2054156E-01 -0.1653329E-01  0.1057700E-01 -0.3519415E-01  0.1728891E-01  0.3344470E-01  0.1586665E-01  0.3327282E-02 -0.7984447E-02  0.2681410E-01  0.3842507E-01  0.4340593E-01  0.3615596E-01 -0.6031917E-02  0.1895889E-02  0.1224300E-01  0.2854281E-01 -0.2665572E-01  0.3903330E-01  0.5705661E-01  0.1839631E-01  0.5575449E-02 -0.1501180E-01 -0.5378953E-01 -0.4936750E-02  0.4523670E-01  0.4071674E-01 -0.4494784E-01 -0.2782138E-01 -0.7591555E-01 -0.2400645E-01  0.1893071E-01 -0.7208233E-01 -0.5429488E-01 -0.5764503E-01 -0.2208098E-01 -0.2727675E-01 -0.3897813E-01 -0.5203155E-01 -0.3284533E-01 -0.8151769E-02  0.2763765E-01 -0.1941108E-01  0.4834090E-01  0.6025611E-01  0.4214391E-01 -0.2139847E-01 -0.7300967E-01  0.6216521E-01  0.3228969E-01  0.2800058E-01 -0.3512233E-01  0.8524835E-02 -0.4285550E-01  0.3163935E-01  0.8379380E-02  0.2978584E-01  0.5893197E-01 -0.4578896E-01 -0.4456946E-02 -0.3373541E-02 -0.1539820E-01 -0.2488995E-01  0.7985868E-03 -0.2258833E-02 -0.6829527E-02  0.6581761E-01  0.4220783E-01  0.5751057E-01  0.5748274E-01  0.1200042E-01 -0.1583167E-01  0.7522694E-01  0.1003274     -0.1607205     -0.7881410E-01  0.3362932E-01  0.3128701E-01  0.1506539E-01 -0.4572506E-01 -0.2157286E-01 -0.6317373E-01  0.2663262E-01 -0.9206088E-02 -0.3178532E-01 -0.8222646E-02 -0.1752627E-01 -0.1699727E-02  0.1294455E-01  0.4084932E-01  0.6255479E-01  0.1395637E-01 -0.1075139      0.5329159E-01 -0.7551027E-01  0.5954126E-01  0.2755568E-02  0.1304692E-02  0.5877626E-01  0.3564356E-01 -0.1151490E-01  0.2318219     -0.7522814E-02 -0.3472679E-02 -0.1438583     -0.1107680     -0.1009852     -0.5397506E-01 -0.1281293     -0.9140844E-02  0.3077418E-01  0.1521714      0.5868112E-01 -0.3388564E-01 -0.5631760E-01 -0.2317645     -0.1280874     -0.6772183E-01 -0.7571679E-02  0.1484788     -0.6607328E-01 -0.9769800E-01 -0.2742463E-01 -0.2303751     -0.1930665     -0.7945570E-01 -0.9333586E-01  0.2169455     -0.2694012     -0.3267431     -0.3640376     -0.1584247     -0.5310058      -1.889411      -2.034552     -0.1190914     
  0.000000       0.000000       0.000000       0.000000       0.000000       0.000000       0.000000       0.000000       0.000000       0.000000       0.000000       0.000000       0.000000       0.000000       0.000000       0.000000       0.000000       0.000000       0.000000       0.000000       0.000000       0.000000       0.000000       0.000000       0.000000       0.000000       0.000000       0.000000       0.000000       0.000000       0.000000       0.000000       0.000000       0.000000       0.000000       0.000000       0.000000       0.000000       0.000000       0.000000       0.000000       0.000000       0.000000       0.000000      0.4888887E-02  0.4876887E-02 -0.1756892E-01   0.000000       0.000000       0.000000       0.000000       0.000000       0.000000       0.000000       0.000000       0.000000       0.000000       0.000000       0.000000       0.000000       0.000000       0.000000       0.000000       0.000000       0.000000       0.000000       0.000000       0.000000       0.000000       0.000000       0.000000       0.000000       0.000000       0.000000       0.000000       0.000000       0.000000       0.000000     -0.3284717E-01 -0.1219186       0.000000       0.000000       0.000000       0.000000       0.000000       0.000000       0.000000       0.000000       0.000000       0.000000       0.000000       0.000000       0.000000       0.000000       0.000000       0.000000       0.000000       0.000000       0.000000       0.000000       0.000000     -0.3307953E-01 -0.1490983E-01  0.6023334E-01 -0.8118699E-01  0.1530516E-01  0.3647766E-01 -0.3865303E-01 -0.6069953E-01  0.8927627E-02 -0.2914784E-01 -0.5194725E-01 -0.3000045E-01 -0.6570142E-01  0.4306515E-01  0.3303346E-02 -0.3687013E-01  0.2010736E-01  0.3069598E-01 -0.9319904E-02 -0.1996054E-01  0.2620499E-01 -0.6595024E-01  0.9031592E-01 -0.6603537E-01 -0.5183708E-01 -0.5622160E-01 -0.1011956      0.2219206E-01  0.1011199E-01  0.2053283E-01 -0.2298884E-01 -0.1278933E-01 -0.7745460E-02  0.7367337E-01  0.5913254E-01  0.9230796E-01 -0.6976831E-01  0.7969338E-01 -0.2032026E-02 -0.3302697E-02  0.8121846E-01 -0.1388351E-01  0.3040545E-01  0.6776099E-02  0.1089477E-01 -0.4165958E-01  0.9599722E-01  0.1110684     -0.3800511E-02 -0.8973934E-01 -0.8596288E-01  0.1110915E-01  0.3729775E-01  0.9931765E-01 -0.1021832      0.5066210E-01  0.3262490E-01  0.1187683E-02  0.4138859E-01 -0.8911171E-02 -0.4647565E-01 -0.3771268E-01  0.8507819E-01  0.7104296E-02  0.6222201E-02  0.9386110E-02  0.1439598E-01 -0.5095887E-01 -0.2940060E-02  0.3790632E-01 -0.9155897E-01  0.4634602E-02 -0.3790134E-01 -0.1246783E-01  0.4478444E-01  0.3579256E-01 -0.2176622E-01  0.1065050E-01 -0.1083934E-02  0.1171498E-01 -0.9304820E-02  0.8702794E-01 -0.8379069E-02  0.2287256E-01 -0.9026739E-02 -0.6563236E-01  0.1884214E-01  0.2555969E-01  0.1139564E-01  0.5055134E-01 -0.1480404E-01  0.4797497E-01 -0.5242563E-01  0.6086066E-01 -0.5650788E-01  0.6739133E-01  0.1700927E-01  0.1745346E-01  0.6699973E-01 -0.2896603E-01  0.1133006E-01 -0.4207142E-01 -0.7625455E-01 -0.1338580E-01  0.3583798E-01  0.2270697E-01  0.6529792E-01 -0.1721972E-01  0.9778447E-01 -0.3122277E-01  0.5446245E-02  0.5309279E-01 -0.2599634E-01 -0.5309006E-01  0.5854807E-01 -0.2841887E-01 -0.3110933E-01 -0.4773275E-01  0.8034991E-01  0.2888047E-01  0.7723479E-01  0.5326320E-01  0.6994355E-01  0.2993960E-01 -0.1870764E-02  0.1351251E-01 -0.1981579E-01  0.2501784E-01  0.4163025E-01 -0.5462863E-01  0.2290811E-02  0.1449336E-01  0.2162794E-01  0.3643100E-01 -0.4985572E-01  0.3475190E-01  0.3448695E-01  0.3767958E-01  0.5243137E-01  0.1469703E-01 -0.5205506E-01  0.1111452E-01  0.1597745E-01  0.7564522E-01 -0.1473617E-01  0.6112337E-02  0.4965967E-01  0.2805970E-01  0.2816594E-01 -0.1632443E-01 -0.5108336E-01 -0.2926504E-01  0.3328140E-01 -0.1208503E-01  0.1530830E-01 -0.2448799E-01 -0.4839382E-01 -0.5875165E-01  0.1671507E-01 -0.3038024E-01 -0.3535159E-01 -0.5880426E-01 -0.2686800E-01 -0.4825797E-01 -0.5168283E-01 -0.1790825E-01 -0.4647298E-01 -0.3719554E-01  0.3313184E-01 -0.1941150E-02  0.2979099E-01  0.8155601E-01  0.1673993E-01 -0.5742737E-01 -0.3740771E-01  0.1066490      0.1903968E-01 -0.4672344E-01  0.1089309E-01 -0.2132972E-01 -0.6664794E-02  0.4432244E-02  0.1992432E-01 -0.4814232E-01  0.6046738E-01 -0.1929015E-01  0.1897575E-01 -0.3155823E-01 -0.1060174E-01 -0.3577169E-01 -0.3737136E-01  0.9156788E-02  0.6812970E-01  0.3301751E-01  0.9185300E-02  0.1311670      0.4427961E-01 -0.8955611E-02  0.7295960E-02  0.2268871E-02  0.5506578E-01 -0.1211475     -0.6415237E-01 -0.8243463E-02   0.000000      0.4273291E-02  0.9287170E-01 -0.1161366     -0.3552958E-01 -0.2794722E-01  0.2109524E-01 -0.1028870     -0.2913248E-01  0.6241237E-02  0.5723878E-01 -0.4462831E-01 -0.2949874E-01  0.2280270     -0.1073985      0.7305731E-02 -0.3224214E-01  0.1132175     -0.5662205E-01  0.1254070E-01  0.5819379     -0.4661896E-01  0.3716304E-01  0.1725938      0.9935674E-01 -0.2039943E-01   0.000000     -0.9224284E-01 -0.7907014E-01 -0.6819417E-01 -0.3834042E-01 -0.7099804E-01   0.000000     -0.2808176E-01  0.1591140      0.4462267E-01 -0.1492625E-01 -0.1515806     -0.1892177     -0.1369246     -0.7833256E-01 -0.1151741      0.1617669      0.5280983E-01   0.000000     -0.1209702     -0.3429117     -0.9858152E-01  0.4724649E-01 -0.1835621       0.000000     -0.2460042E-01 -0.4836830     -0.5356820E-01 -0.2458174E-01 -0.3261577     -0.8167760      -2.324622       0.000000     
 0.7000000E-01  0.7075533E-01  0.7302110E-01  0.7679652E-01  0.8208025E-01  0.8887020E-01  0.9716338E-01  0.1069557      0.1182415      0.1310136      0.1452624      0.1609760      0.1781393      0.1967335      0.2167359      0.2381186      0.2608488      0.2848871      0.3101876      0.3366964      0.3643516      0.3930818      0.4228061      0.4534323      0.4848569      0.5169642      0.5496257      0.5826989      0.6160271      0.6494393      0.6827492      0.7157549      0.7482394      0.7799699      0.8106992      0.8401648      0.8680903      0.8941869      0.9181535      0.9396794      0.9584455      0.9741272      0.9863967      0.9949260      0.9993906      0.9994732      0.9948679      0.9852852      0.9704564      0.9501395      0.9241241      0.8922381      0.8543532      0.8103911      0.7603295      0.7042090      0.6421375      0.5742970      0.5009484      0.4224350      0.3391876      0.2517264      0.1606617      0.6669623E-01  0.2937775E-01  0.1266807      0.2242512      0.3210521      0.4159783      0.5078681      0.5955182      0.6776963      0.7531596      0.8206748      0.8790388      0.9271017      0.9637932      0.9881455      0.9993218      0.9966417      0.9796070      0.9479271      0.9015411      0.8406389      0.7656779      0.6773949      0.5768158      0.4652561      0.3443176      0.2158764      0.8206277E-01  0.5476316E-01  0.1920450      0.3270800      0.4570611      0.5791420      0.6904951      0.7883857      0.8702446      0.9337415      0.9768628      0.9979856      0.9959460      0.9701030      0.9203900      0.8473579      0.7521993      0.6367587      0.5035237      0.3555925      0.1966251      0.3076696E-01  0.1374433      0.3031915      0.4615203      0.6074813      0.7362902      0.8435001      0.9251645      0.9780065      0.9995679      0.9883445      0.9438953      0.8669205      0.7593022      0.6241022      0.4655163      0.2887722      0.9999819E-01  0.9398090E-01  0.2858697      0.4681666      0.6334631      0.7747599      0.8857724      0.9612449      0.9972277      0.9913192      0.9428537      0.8530183      0.7248973      0.5634237      0.3752384      0.1684745      0.4757906E-01  0.2628557      0.4669774      0.6497557      0.8017166      0.9146192      0.9819428      0.9993123      0.9648296      0.8792916      0.7462754      0.5720654      0.3654254      0.1372205      0.1001151      0.3332287      0.5485825      0.7332686      0.8757874      0.9668315      0.9999359      0.9720153      0.8836959      0.7394382      0.5474161      0.3191254      0.6878778E-01  0.1875124      0.4328042      0.6503679      0.8249100      0.9436577      0.9973871      0.9812085      0.8950989      0.7440948      0.5381190      0.2914360      0.2175052E-01  0.2510088      0.5061354      0.7237152      0.8862311      0.9800305      0.9965752      0.9333162      0.7941293      0.5892316      0.3345637      0.5066565E-01  0.2389384      0.5096083      0.7377166      0.9027557      0.9892568      0.9883595      0.8988441      0.7275102      0.4888351      0.2038810      0.1014315      0.3986318      0.6593410      0.8579976      0.9744509      0.9961416      0.9195853      0.7510382      0.5061747      0.2088142      0.1112833      0.4213037      0.6887344      0.8848168      0.9877250      0.9851587      0.8759794      0.6706835      0.3906242      0.6594590E-01  0.2675117      0.5721365      0.8127745      0.9608852      0.9980691      0.9185424      0.7302069      0.4541132      0.1223336      0.2256233      0.5474397      0.8031170      0.9600562      0.9973666      0.9088549      0.7042521      0.4084142      0.5854198E-01  0.3003473      0.6211215      0.8607700      0.9862662      0.9793347      0.8393434      0.5838990      0.2469008      0.1257198      0.4821153      0.7717379      0.9525648      0.9973924      0.8981776      0.6677345      0.3384223      0.4215695E-01  0.4178399      0.7321377      0.9367814      0.9993566      0.9086702      0.6770654      0.3391102      0.5328820E-01  0.4386339      0.7554431      0.9521095      0.9955402      0.8770206      0.6142579      0.2491365      0.1586783      0.5412852      0.8338628      0.9857289      0.9694272      0.7860202      0.4656099      0.6278113E-01  0.3524122      0.7065484      0.9358088      0.9977456      0.8794693      0.6007024      0.2109364      0.2190006      0.6096326      0.8874913      0.9991525      0.9218119      0.6683826      0.2858064      0.1532109      0.5637661      0.8651995      0.9970242      0.9314612      0.6797148      0.2906123      0.1584348      0.5765968      0.8779109      0.9991630      0.9135159      0.6369249      0.2257264      0.2343970      0.6460133      0.9205873      0.9977240      0.8589141      0.5324662      0.8828994E-01  0.3766539      0.7592974      0.9734254      0.9694216      0.7462541      0.3527336      0.1225908      0.5710265      0.8885082      0.9999388      0.8774204      0.5478027      0.8742861E-01  0.3950476      0.7840951      0.9850780      0.9476237      0.6788422      0.2427657      0.2544132      0.6897580      0.9540635      0.9795522      0.7577969      0.3430523      0.1603705      0.6239179      0.9275859      0.9912077      0.7962222      0.3916995      0.1172408      0.5963650      0.9175507      0.9933433      0.8013301      0.3914596      0.1261854      0.6105343      0.9277720      0.9886621      0.7742267      0.3423821      0.1869261      0.6646221      0.9543253      0.9717013     
  1.000000      0.3314841      0.3314841      0.3314841      0.3314841      0.3314841      0.3314841      0.3314841      0.3314841      0.3314841      0.3314841      0.3314841      0.3314841      0.3314841      0.3314841      0.3314841      0.3314841      0.3314841      0.3314841      0.3314841      0.3314841      0.3314841      0.3314841      0.3314841      0.3314841      0.3314841      0.3314841      0.3314841      0.3314841      0.3314841      0.3314841      0.3314841      0.3314841      0.3314841      0.3314841      0.3314841      0.3314841      0.3314841      0.3314841      0.3314841      0.3314841      0.3314841      0.3314841      0.3314841      0.3314841      0.3314841     -0.2859147     -0.2859147     -0.2859147     -0.2859147     -0.2859147     -0.2859147     -0.2859147     -0.2859147     -0.2859147     -0.2859147     -0.2859147     -0.2859147     -0.2859147     -0.2859147     -0.2859147     -0.2859147     -0.2859147     -0.2859147     -0.2859147     -0.2859147     -0.2859147     -0.2859147     -0.2859147     -0.2859147     -0.2859147     -0.2859147     -0.2859147     -0.2859147     -0.2859147     -0.2859147     -0.2859147     -0.2859147     -0.2859147     -0.3104368     -0.3104368     -0.3104368     -0.3104368     -0.3104368     -0.3104368     -0.3104368     -0.3104368     -0.3104368     -0.3104368     -0.3104368     -0.3104368     -0.3104368     -0.3104368     -0.3104368     -0.3104368     -0.3104368     -0.3104368     -0.3104368     -0.3104368     -0.3104368     -0.3104368     -0.3104368      0.3447601      0.3447601      0.3447601      0.3447601      0.3447601      0.3447601      0.3447601      0.3447601      0.3447601      0.3447601      0.3447601      0.3447601      0.3447601      0.3447601      0.3447601      0.3447601      0.3447601      0.3447601      0.3447601      0.3432889      0.3432889      0.3432889      0.3432889      0.3432889      0.3432889      0.3432889      0.3432889      0.3432889      0.3432889      0.3432889      0.3432889      0.3432889      0.3432889      0.3432889      0.3432889     -0.2221997     -0.2221997     -0.2221997     -0.2221997     -0.2221997     -0.2221997     -0.2221997     -0.2221997     -0.2221997     -0.2221997     -0.2221997     -0.2221997     -0.2221997     -0.2221997     -0.2221997      0.2699774E-01  0.2699774E-01  0.2699774E-01  0.2699774E-01  0.2699774E-01  0.2699774E-01  0.2699774E-01  0.2699774E-01  0.2699774E-01  0.2699774E-01  0.2699774E-01  0.2699774E-01  0.2699774E-01  0.3827532      0.3827532      0.3827532      0.3827532      0.3827532      0.3827532      0.3827532      0.3827532      0.3827532      0.3827532      0.3827532      0.3827532     -0.4530335     -0.4530335     -0.4530335     -0.4530335     -0.4530335     -0.4530335     -0.4530335     -0.4530335     -0.4530335     -0.4530335     -0.4530335     -0.4530335      0.2579294      0.2579294      0.2579294      0.2579294      0.2579294      0.2579294      0.2579294      0.2579294      0.2579294      0.2579294      0.5647392      0.5647392      0.5647392      0.5647392      0.5647392      0.5647392      0.5647392      0.5647392      0.5647392      0.5647392      0.5647392     -0.1675658     -0.1675658     -0.1675658     -0.1675658     -0.1675658     -0.1675658     -0.1675658     -0.1675658     -0.1675658     -0.2965906     -0.2965906     -0.2965906     -0.2965906     -0.2965906     -0.2965906     -0.2965906     -0.2965906     -0.2965906     -0.2965906      0.1826724E-01  0.1826724E-01  0.1826724E-01  0.1826724E-01  0.1826724E-01  0.1826724E-01  0.1826724E-01  0.1826724E-01  0.1826724E-01  0.5840733      0.5840733      0.5840733      0.5840733      0.5840733      0.5840733      0.5840733      0.5840733      0.1979098      0.1979098      0.1979098      0.1979098      0.1979098      0.1979098      0.1979098      0.1979098      0.1979098      0.1764773      0.1764773      0.1764773      0.1764773      0.1764773      0.1764773      0.1764773      0.1764773      0.4693345      0.4693345      0.4693345      0.4693345      0.4693345      0.4693345      0.4693345      0.4693345      0.5565690      0.5565690      0.5565690      0.5565690      0.5565690      0.5565690      0.5565690      0.2046167E-01  0.2046167E-01  0.2046167E-01  0.2046167E-01  0.2046167E-01  0.2046167E-01  0.2046167E-01  0.2046167E-01  0.1557389      0.1557389      0.1557389      0.1557389      0.1557389      0.1557389      0.1557389     -0.5284244     -0.5284244     -0.5284244     -0.5284244     -0.5284244     -0.5284244     -0.5284244      0.7119558      0.7119558      0.7119558      0.7119558      0.7119558      0.7119558      0.7119558      0.1118862      0.1118862      0.1118862      0.1118862      0.1118862      0.1118862      0.1118862      0.1224934      0.1224934      0.1224934      0.1224934      0.1224934      0.1224934      0.2397154      0.2397154      0.2397154      0.2397154      0.2397154      0.2397154      0.2397154     -0.5320258     -0.5320258     -0.5320258     -0.5320258     -0.5320258     -0.5320258      0.4140594      0.4140594      0.4140594      0.4140594      0.4140594      0.4140594      0.4140594      0.1052253      0.1052253      0.1052253      0.1052253      0.1052253      0.1052253     -0.8270538     -0.8270538     -0.8270538     -0.8270538     -0.8270538     -0.8270538     -0.3345758     -0.3345758     -0.3345758     -0.3345758     -0.3345758     -0.3345758       1.000000       1.000000       1.000000       1.000000       1.000000       1.000000     
